"Time [us]","V(Port1) [mV]"
0,0
5.40165407907448E-06,20.3581269302876
1.0803308158149E-05,40.6824898870123
2.16066163162979E-05,81.0952038781495
4.32132326325959E-05,160.042922440124
6.93490646067759E-05,249.688535580224
9.54848965809558E-05,329.669465109227
0.000108197276548998,364.133002722848
0.000115920961954188,383.458589264082
0.000120967416653968,395.387117852851
0.00012429151495946,402.932802542957
0.000126493788448132,407.792854065893
0.000128696061936805,412.540472442836
0.000130898335425478,417.174348701191
0.00013310060891415,421.693205228364
0.000137505155891496,430.380907543568
0.000146314249846187,446.323422011688
0.000163932437755569,472.242151463452
0.000188967930249938,494.679608301786
0.000220083787087059,498.038955638807
0.00025119964392418,474.111279801118
0.000289871300216282,408.449663768525
0.000328542956508383,308.308048055418
0.000382840516963256,126.143586459714
0.000437138077418128,-76.8693252052531
0.000491435637873001,-267.177617211166
0.000533669860978626,-386.064066986015
0.000575904084084251,-466.132117467386
0.000618138307189875,-499.33099724187
0.0006603725302955,-482.322588413015
0.000702606753401125,-416.817071393157
0.00074484097650675,-309.40096778078
0.000798206077019531,-130.883830054823
0.000851571177532311,68.5385757103177
0.000904936278045092,257.013736917838
0.00094720430123251,378.453378922205
0.000989472324419928,461.779453846394
0.00103174034760735,498.600296764078
0.00107400837079476,485.207726576471
0.00111627639398218,422.950492299037
0.0011585444171696,318.098442232822
0.00121121766088372,144.131312738985
0.00126389090459784,-52.2717890431586
0.00131656414831196,-240.538085656836
0.00136923739202608,-391.361402521536
0.0014219106357402,-481.264067136388
0.00147458387945432,-496.25152374794
0.00152725712316844,-433.990773684224
0.00157993036688256,-304.173537894238
0.00163260361059668,-127.007610571898
0.0016852768543108,69.9287550892332
0.00173795009802492,255.979771956108
0.00179062334173904,402.184103457847
0.00184329658545317,485.783084127054
0.00189596982916729,493.763411177665
0.00194864307288141,424.882839651549
0.00200131631659553,289.863554510421
0.00205398956030965,109.723118712996
0.00210666280402377,-87.4971924012491
0.00215933604773789,-271.097391780482
0.00221200929145201,-412.497645472451
0.00226468253516613,-489.687107165518
0.00231735577888025,-490.650201683239
0.00237002902259437,-415.237010444425
0.00242270226630849,-275.186608301402
0.00247537551002261,-92.2997190645266
0.00252804875373673,104.954859606359
0.00258072199745085,285.87180645455
0.00263339524116497,422.288971778947
0.00268606848487909,492.971193818343
0.00273874172859321,486.915836540249
0.00279141497230733,405.065497535053
0.00284408821602145,260.161280056527
0.00289676145973557,74.7594693838739
0.00294943470344969,-122.279655564979
0.00300210794716381,-300.284311795381
0.00305478119087793,-431.545686708038
0.00310745443459205,-495.631186482072
0.00316012767830617,-482.565043397832
0.00321280092202029,-394.381177903154
0.00326547416573441,-244.806591611471
0.00331814740944853,-57.1245753587735
0.00337082065316265,139.449647350487
0.00342349389687677,314.316661791718
0.00347616714059089,440.256071400246
0.00352884038430501,497.663717646688
0.00358151362801914,477.603330293541
0.00363418687173326,383.197577733917
0.00368686011544738,229.141981766886
0.0037395333591615,39.417362495254
0.00379220660287562,-156.443098015978
0.00384487984658974,-327.951091703156
0.00389755309030386,-448.409098641817
0.00395022633401798,-499.066214158836
0.0040028995777321,-472.036978680254
0.00405557282144622,-371.528855294049
0.00410824606516034,-213.187281679173
0.00416091930887446,-21.6602478538877
0.00421359255258858,173.238494112901
0.0042662657963027,341.17034055003
0.00431893904001682,455.994446825001
0.00437161228373094,499.836900479389
0.00442428552744506,465.873035473948
0.00447695877115918,359.389783007636
0.0045296320148733,196.962689754537
0.00458230525858742,3.87571167013169
0.00463497850230154,-189.814572926764
0.00468765174601566,-353.957672965547
0.00474032498972978,-463.002513015053
0.0047929982334439,-499.974800931253
0.00484567147715802,-459.11930413242
0.00489834472087214,-346.795728754465
0.00495101796458626,-180.488746078135
0.00500369120830038,13.9137311053053
0.0050563644520145,206.150349395392
0.00510903769572862,366.296900382512
0.00516171093944274,469.424425107394
0.00521438418315686,499.479740934572
0.00526705742687099,451.784334776215
0.00531973067058511,333.762636414539
0.00537240391429923,163.786306410606
0.00542507715801335,-31.6855593100315
0.00547775040172747,-222.225142675715
0.00553042364544159,-378.172401527798
0.00558309688915571,-475.252053059572
0.00563577013286983,-498.35234722772
0.00568844337658395,-443.877413364318
0.00574111662029807,-320.307005683356
0.00579378986401219,-146.876515785031
0.00584646310772631,49.4172740814558
0.00589913635144043,238.018602325367
0.00595180959515455,389.569142198654
0.00600448283886867,480.478019183756
0.00605715608258279,496.594047073889
0.00610982932629691,435.408549938262
0.00616250257001103,306.445871183558
0.00621517581372515,129.780781737629
0.00626784905743927,-67.0864273399519
0.00632052230115339,-253.510734066079
0.00637319554486751,-400.472694295744
0.00642586878858163,-485.095707486793
0.00647854203229575,-494.207066454165
0.00653121527600987,-426.388465949579
0.00658388851972399,-292.19678089935
0.00663656176343811,-112.520747206146
0.00668923500715223,84.6706502078405
0.00674190825086635,268.681925096077
0.00679458149458047,410.869254088947
0.00684725473829459,489.099272045934
0.00689992798200871,491.1944272495
0.00695260122572283,416.828580686583
0.00700527446943696,277.577773961028
0.00705794771315108,95.1182631302253
0.0071106209568652,-102.147681327988
0.00716329420057932,-283.512968919646
0.00721596744429344,-420.745659692616
0.00726864068800756,-492.483644409707
0.00732131393172168,-487.559943415026
0.0073739871754358,-406.740996817769
0.00742666041914992,-262.607357807707
0.00747933366286404,-77.5953607884607
0.00753200690657816,119.495395046394
0.00758468015029227,297.985089662187
0.00763735339400639,430.089407728363
0.00769002663772051,495.244540014468
0.00774269988143463,483.308216151691
0.00779537312514875,396.13848506999
0.00784804636886287,247.304484757243
0.00790071961257699,59.9742239071625
0.0079533928562911,-136.691829422861
0.00800606610000522,-312.079965840256
0.00805873934371934,-438.888669154117
0.00811141258743346,-497.378463608634
0.00816408583114758,-478.444628081147
0.0082167590748617,-385.034468060897
0.00826943231857582,-231.68852801274
0.00832210556228993,-42.2771605759835
0.00837477880600405,153.715214034623
0.00842745204971817,325.779753556279
0.00848012529343229,447.132304239564
0.00853279853714641,498.882713677578
0.00858547178086053,472.975336431488
0.00863814502457465,373.443003306125
0.00869081826828877,215.779257136532
0.00874349151200289,24.526575006339
0.008796164755717,-170.543997537196
0.00884883799943112,-339.067109088615
0.00890151124314524,-454.809876668804
0.00895418448685936,-499.755385863736
0.00900685773057348,-466.907265242252
0.0090595309742876,-361.378765422713
0.00911220421800171,-199.596813022126
0.00916487746171583,-6.74493916798608
0.00921755070542995,187.156874948157
0.00927022394914407,351.925210848447
0.00932289719285819,461.911666752613
0.00937557043657231,499.995375377463
0.00942824368028643,460.248096598737
0.00948091692400055,348.857027551235
0.00953359016771466,183.161682396198
0.00958626341142878,-11.0452356601567
0.0096389366551429,-203.532814618854
0.00969160989885702,-364.337780675674
0.00974428314257114,-468.428683733387
0.00979695638628526,-499.602378395715
0.00984962962999938,-453.006260906556
0.0099023028737135,-335.893642020274
0.00995497611742761,-166.494671882665
0.0100076493611417,28.821427388944
0.0100603226048559,219.651084860234
0.01011299584857,376.289104446801
0.0101656690922841,474.352677167351
0.0102183423359982,498.57689244665
0.0102710155797123,445.190926218901
0.0103236888234264,322.505020277557
0.0103763620671406,149.616881661836
0.0104290353108547,-46.561131631619
0.0104817085545688,-235.491280188758
0.0105343817982829,-387.764051968791
0.010587055041997,-479.676147369442
0.0106397282857112,-496.920215779798
0.0106924015294253,-436.811986629908
0.0107450747731394,-308.708112113383
0.0107977480168535,-132.549678757902
0.0108504212605676,64.2418901940123
0.0109030945042817,251.033347159499
0.0109557677479959,398.748096133634
0.01100844099171,484.392354907839
0.0110611142354241,494.634445722465
0.0111137874791382,427.880049748916
0.0111664607228523,294.520384202398
0.0112191339665665,115.314669988635
0.0112718072102806,-81.841319506295
0.0113244804539947,-266.257609753446
0.0113771536977088,-409.227331309474
0.0114298269414229,-488.495329135946
0.0114825001851371,-491.722476024579
0.0115351734288512,-418.406423271344
0.0115878466725653,-279.959797991066
0.0116405199162794,-97.9336746114231
0.0116931931599935,99.3371389602283
0.0117458664037076,281.1447942871
0.0117985396474218,419.188490944906
0.0118512128911359,491.979875751173
0.01190388613485,488.187993195219
0.0119565593785641,408.403100663381
0.0120092326222782,265.044786958758
0.0120619058659924,80.4286967005068
0.0121145791097065,-116.707199116064
0.0121672523534206,-295.676053812597
0.0122199255971347,-428.618964364238
0.0122725988408488,-494.841583370811
0.012325272084563,-484.035471835576
0.0123779453282771,-397.882745978396
0.0124306185719912,-249.794233281252
0.0124832918157053,-62.8218972901021
0.0125359650594194,133.929509743387
0.0125886383031335,309.832991977701
0.0126413115468477,437.506812732394
0.0126939847905618,497.076829116801
0.0127466580342759,479.270168974157
0.01279933127799,386.858677824471
0.0128520045217041,234.227443926178
0.0129046777654183,45.1355663188762
0.0129573510091324,-150.982267660457
0.0130100242528465,-323.597686315298
0.0130626974965606,-445.840784169333
0.0131153707402747,-498.682783202223
0.0131680439839889,-473.898117411478
0.013220717227703,-375.344852503211
0.0132733904714171,-218.364126210685
0.0133260637151312,-27.392094411245
0.0133787369588453,167.84388433664
0.0134314102025594,336.95271093295
0.0134840834462736,453.610327994714
0.0135367566899877,499.65741251378
0.0135894299337018,467.926118082622
0.0136421031774159,363.355846341326
0.01369477642113,202.224362852298
0.0137474496648442,9.61394453118201
0.0138001229085583,-184.493013223208
0.0138527961522724,-349.881158573811
0.0139054693959865,-460.805608084931
0.0139581426397006,-499.999483185669
0.0140108158834147,-461.361731447381
0.0140634891271289,-350.906837237187
0.014116162370843,-185.82858654451
0.0141688356145571,8.17637645556425
0.0142215088582712,200.908576777701
0.0142741821019853,362.366662020973
0.0143268553456995,467.417515325465
0.0143795285894136,499.708562161661
0.0144322018331277,454.213267918789
0.0144848750768418,338.013585445853
0.0145375483205559,169.197554089257
0.0145902215642701,-25.9563462748166
0.0146428948079842,-217.069793147832
0.0146955680516983,-374.393414818097
0.0147482412954124,-473.437679142923
0.0148009145391265,-498.785017743313
0.0148535877828406,-446.489777342314
0.0149062610265548,-324.692413626826
0.0149589342702689,-152.352320119191
0.015011607513983,43.7034557568115
0.0150642807576971,232.956202480924
0.0151169540014112,385.946191280148
0.0151696272451254,478.858478102008
0.0152223004888395,497.230019123735
0.0152749737325536,438.201037538853
0.0153276469762677,310.960186179828
0.0153803202199818,135.314210442794
0.015432993463696,-61.3952373324547
0.0154856667074101,-248.547692825819
0.0155383399511242,-397.010365768868
0.0155910131948383,-483.673049554179
0.0156436864385524,-495.045534907384
0.0156963596822665,-429.357541926192
0.0157490329259807,-296.834287894707
0.0158017061696948,-118.104795046231
0.0158543794134089,79.0092934769705
0.015907052657123,263.824525594288
0.0159597259008371,407.571931208647
0.0160123991445513,487.875298325636
0.0160650723882654,492.234330617861
0.0161177456319795,419.970486234461
0.0161704188756936,282.332601942567
0.0162230921194077,100.745860786097
0.0162757653631219,-96.5233250647549
0.016328438606836,-278.767360549779
0.0163811118505501,-417.617516819217
0.0164337850942642,-491.459904433732
0.0164864583379783,-488.79996519678
0.0165391315816924,-410.051754332557
0.0165918048254066,-267.47348723595
0.0166444780691207,-83.2593838075867
0.0166971513128348,113.915159599782
0.0167498245565489,293.35728029185
0.016802497800263,427.134405042894
0.0168551710439772,494.422329821969
0.0169078442876913,484.746786498228
0.0169605175314054,399.613903183313
0.0170131907751195,252.275755186744
0.0170658640188336,65.6675017230107
0.0171185372625478,-131.162779285614
0.0171712105062619,-307.575814205335
0.017223883749976,-436.110547644785
0.0172765569936901,-496.75882410514
0.0173292302374042,-480.079925784412
0.0173819034811183,-388.670146946581
0.0174345767248325,-236.758645891196
0.0174872499685466,-47.992485585946
0.0175399232122607,148.244348899617
0.0175925964559748,321.40496184382
0.0176452696996889,444.534580965688
0.0176979429434031,498.466429317219
0.0177506161871172,474.805291229613
0.0178032894308313,377.234340250338
0.0178559626745454,220.941803772288
0.0179086359182595,30.2567116964076
0.0179613091619736,-165.13824343598
0.0180139824056878,-334.827215718006
0.0180666556494019,-452.395840308311
0.018119328893116,-499.542983656144
0.0181720021368301,-468.929560440458
0.0182246753805442,-365.320960650883
0.0182773486242584,-204.845252710118
0.0183300218679725,-12.4826332727682
0.0183826951116866,181.823075482727
0.0184353683554007,347.825583459825
0.0184880415991148,459.6843734386
0.018540714842829,499.987124220583
0.0185933880865431,462.460172002243
0.0186460613302572,352.945090304518
0.0186987345739713,188.489370692078
0.0187514078176854,-5.30724797361868
0.0188040810613995,-198.277722297736
0.0188567543051137,-360.383609334593
0.0189094275488278,-466.390953185117
0.0189621007925419,-499.798288735386
0.019014774036256,-455.405316061742
0.0190674472799701,-340.122396873764
0.0191201205236843,-171.894864014558
0.0191727937673984,23.090410325266
0.0192254670111125,214.481352549898
0.0192781402548266,372.485395073679
0.0193308134985407,472.507089120519
0.0193834867422549,498.976716263378
0.019436159985969,447.773923958648
0.0194888332296831,326.869113692312
0.0195415064733972,155.082741069129
0.0195941797171113,-40.8443405707208
0.0196468529608254,-230.413452691214
0.0196995262045396,-384.115620001497
0.0197521994482537,-478.025038310277
0.0198048726919678,-497.523446902749
0.0198575459356819,-439.575656918597
0.019910219179396,-313.202019213911
0.0199628924231102,-138.074285746212
0.0200155656668243,58.5465625059122
0.0200682389105384,246.05385292667
0.0201209121542525,395.259560431219
0.0201735853979666,482.937815115149
0.0202262586416808,495.440320470265
0.0202789318853949,430.820893822241
0.020331605129109,299.138415771058
0.0203842783728231,120.891030490031
0.0204369516165372,-76.1746653887166
0.0204896248602513,-261.382752748839
0.0205422981039655,-405.90310830476
0.0205949713476796,-487.239200034852
0.0206476445913937,-492.72997417213
0.0207003178351078,-421.520718065713
0.0207529910788219,-284.696107670564
0.0208056643225361,-103.55472903885
0.0208583375662502,93.7063323105662
0.0209110108099643,276.380746005107
0.0209636840536784,416.032789053363
0.0210163572973925,490.923747581902
0.0210690305411066,489.395839265279
0.0211217037848208,411.686903529224
0.0211743770285349,269.893378653492
0.021227050272249,86.0873288850434
0.0212797235159631,-111.119368449401
0.0213323967596772,-291.028845465454
0.0213850700033914,-425.635778656178
0.0214377432471055,-493.986793175467
0.0214904164908196,-485.4421367135
0.0215430897345337,-401.331899671526
0.0215957629782478,-254.748968748319
0.021648436221962,-68.5109434899715
0.0217011094656761,128.391729167862
0.0217537827093902,305.308506860081
0.0218064559531043,434.699919875286
0.0218591291968184,496.424459046692
0.0219118024405325,480.873871843729
0.0219644756842467,390.468815769079
0.0220171489279608,239.282050546274
0.0220698221716749,50.8478242886363
0.022122495415389,-145.501547921546
0.0221751686591031,-319.20165235613
0.0222278419028173,-443.213737646586
0.0222805151465314,-498.233659147878
0.0223331883902455,-475.696828009402
0.0223858616339596,-379.111404319898
0.0224385348776737,-223.51220492917
0.0224912081213879,-33.1203325197025
0.022543881365102,162.42716394168
0.0225965546088161,332.690693443969
0.0226492278525302,451.166453607033
0.0227019010962443,499.41210305938
0.0227545743399584,469.917559268803
0.0228072475836726,367.274043633118
0.0228599208273867,207.459396280279
0.0229125940711008,15.3509109165305
0.0229652673148149,-179.147149657343
0.023017940558529,-345.758553203953
0.0230706138022432,-458.5479997399
0.0231232870459573,-499.95829888923
0.0231759602896714,-463.543382087741
0.0232286335333855,-354.971719626256
0.0232813067770996,-191.143947209753
0.0233339800208138,2.43794470500097
0.0233866532645279,195.640337822411
0.023439326508242,358.388687925554
0.0234919997519561,465.349031120707
0.0235446729956702,499.871555161871
0.0235973462393843,456.582366077004
0.0236500194830985,342.220006853299
0.0237026927268126,174.586512826504
0.0237553659705267,-20.2237139258187
0.0238080392142408,-211.885848313039
0.0238607124579549,-370.565108051466
0.0239133857016691,-471.560937747795
0.0239660589453832,-499.151981693529
0.0240187321890973,-449.043323776358
0.0240714054328114,-329.035048787495
0.0241240786765255,-157.808054589116
0.0241767519202396,37.9838802342389
0.0242294251639538,227.863114561476
0.0242820984076679,382.2723984201
0.024334771651382,477.175855442404
0.0243874448950961,497.80048945321
0.0244401181388102,440.935799498008
0.0244927913825244,315.433537384047
0.0245454646262385,140.829813769023
0.0245981378699526,-55.6959595314196
0.0246508111136667,-243.551909593104
0.0247034843573808,-393.495737780962
0.024756157601095,-482.186675804643
0.0248088308448091,-495.818789409409
0.0248615040885232,-432.270057243654
0.0249141773322373,-301.432691948287
0.0249668505759514,-123.673284559345
0.0250195238196655,73.3375285959639
0.0250721970633797,258.932371633441
0.0251248703070938,404.220917558137
0.0251775435508079,486.587055212594
0.025230216794522,493.209390364066
0.0252828900382361,423.057067710404
0.0253355632819503,287.050237336333
0.0253882365256644,106.36018686357
0.0254409097693785,-90.8862534713414
0.0254935830130926,-273.985029252864
0.0255462562568067,-414.434359838116
0.0255989295005209,-490.371422853253
0.025651602744235,-489.975595776445
0.0257042759879491,-413.308494402054
0.0257569492316632,-272.304381515676
0.0258096224753773,-88.9124387984996
0.0258622957190914,108.319917740353
0.0259149689628056,288.690826017123
0.0259676422065197,424.123134559237
0.0260203154502338,493.534987775084
0.0260729886939479,486.121499581023
0.026125661937662,403.03667886326
0.0261783351813762,257.213792514179
0.0262310084250903,71.3521289462369
0.0262836816688044,-125.616450650745
0.0263363549125185,-303.0311446125
0.0263890281562326,-433.274975880929
0.0264417013999468,-496.073744953298
0.0264943746436609,-481.651981004617
0.026547047887375,-392.254625055351
0.0265997211310891,-241.797574786649
0.0266523943748032,-53.7014883904057
0.0267050676185173,142.753955056515
0.0267577408622315,316.987830415075
0.0268104141059456,441.878297712114
0.0268630873496597,497.984480360152
0.0269157605933738,476.572698389358
0.0269684338370879,380.975982893467
0.0270211070808021,226.075245028843
0.0270737803245162,35.9828625718703
0.0271264535682303,-159.710735139266
0.0271791268119444,-330.543214474145
0.0272318000556585,-449.922208378974
0.0272844732993726,-499.264775033853
0.0273371465430868,-470.890082029327
0.0273898197868009,-369.215030966035
0.027442493030515,-210.066707469699
0.0274951662742291,-18.2186829998446
0.0275478395179432,176.465323874849
0.0276005127616574,343.680135880881
0.0276531860053715,457.396524413673
